# Wave

# Solution by 8-term Fourier series

# Surface of wave - trough-crest-trough, note quadratic point spacing clustered around crest
# Non-dimensionalised with respect to depth
# X/d, eta/d, & check of surface pressure

 -1.0440	 0.9877	  5e-12
 -0.9422	 0.9883	  5e-12
 -0.8457	 0.9898	  5e-12
 -0.7543	 0.9919	  5e-12
 -0.6682	 0.9945	  5e-12
 -0.5873	 0.9973	  5e-12
 -0.5116	 1.0002	  5e-12
 -0.4411	 1.0028	  5e-12
 -0.3758	 1.0052	  5e-12
 -0.3158	 1.0072	  5e-12
 -0.2610	 1.0088	  5e-12
 -0.2114	 1.0101	  5e-12
 -0.1670	 1.0111	  5e-12
 -0.1279	 1.0118	  5e-12
 -0.0940	 1.0122	  5e-12
 -0.0653	 1.0125	  5e-12
 -0.0418	 1.0126	  5e-12
 -0.0235	 1.0127	  5e-12
 -0.0104	 1.0127	  5e-12
 -0.0026	 1.0127	  5e-12
  0.0000	 1.0127	  5e-12
  0.0026	 1.0127	  5e-12
  0.0104	 1.0127	  5e-12
  0.0235	 1.0127	  5e-12
  0.0418	 1.0126	  5e-12
  0.0653	 1.0125	  5e-12
  0.0940	 1.0122	  5e-12
  0.1279	 1.0118	  5e-12
  0.1670	 1.0111	  5e-12
  0.2114	 1.0101	  5e-12
  0.2610	 1.0088	  5e-12
  0.3158	 1.0072	  5e-12
  0.3758	 1.0052	  5e-12
  0.4411	 1.0028	  5e-12
  0.5116	 1.0002	  5e-12
  0.5873	 0.9973	  5e-12
  0.6682	 0.9945	  5e-12
  0.7543	 0.9919	  5e-12
  0.8457	 0.9898	  5e-12
  0.9422	 0.9883	  5e-12
  1.0440	 0.9877	  5e-12

